Wavelength	14141 <10	sd	14141 10-20	sd	14141 20-45	sd	14141 <45	sd
300.00	0.12686	0.080170	0.093861	0.078811	0.082419	0.077265	0.10279	0.077580
305.00	0.13156	0.050808	0.097497	0.049518	0.082889	0.049492	0.10862	0.049533
310.00	0.13506	0.035027	0.10057	0.035256	0.085313	0.035814	0.11002	0.035109
315.00	0.13798	0.026854	0.10345	0.026750	0.088202	0.026769	0.11312	0.026675
320.00	0.14181	0.020767	0.10503	0.021067	0.089168	0.021057	0.11525	0.021131
325.00	0.14557	0.017298	0.10834	0.016862	0.090812	0.017170	0.11747	0.016811
330.00	0.15038	0.014248	0.11162	0.014164	0.092526	0.013895	0.12085	0.014305
335.00	0.15377	0.011575	0.11493	0.011812	0.094662	0.012079	0.12438	0.012261
340.00	0.15927	0.010296	0.11883	0.0099860	0.096912	0.010080	0.12667	0.0097540
345.00	0.16377	0.0086620	0.12140	0.0085230	0.099749	0.0083390	0.13057	0.0084530
350.00	0.16878	0.0071690	0.12639	0.0071390	0.10153	0.0070440	0.13449	0.0071360
355.00	0.17324	0.0060710	0.13034	0.0060730	0.10482	0.0059460	0.13862	0.0058860
360.00	0.17828	0.0053650	0.13489	0.0050700	0.10801	0.0049630	0.14256	0.0049740
365.00	0.18303	0.0046130	0.13842	0.0043790	0.11150	0.0042780	0.14646	0.0043110
370.00	0.18720	0.0041820	0.14251	0.0038970	0.11437	0.0037880	0.15019	0.0037840
375.00	0.19190	0.0037600	0.14606	0.0034470	0.11728	0.0033780	0.15342	0.0034520
380.00	0.19500	0.0038190	0.14885	0.0033850	0.12024	0.0033030	0.15750	0.0032660
385.00	0.19930	0.0039090	0.15230	0.0032950	0.12202	0.0032800	0.16028	0.0032940
390.00	0.20249	0.0040960	0.15550	0.0036380	0.12448	0.0036310	0.16382	0.0036920
395.00	0.20546	0.0048400	0.15857	0.0045630	0.12702	0.0046700	0.16734	0.0043920
400.00	0.20844	0.0029880	0.16208	0.0022740	0.13036	0.0023130	0.17000	0.0023250
405.00	0.21148	0.0028040	0.16453	0.0020000	0.13287	0.0020520	0.17274	0.0019560
410.00	0.21518	0.0027820	0.16766	0.0018650	0.13493	0.0020400	0.17528	0.0017500
415.00	0.21820	0.0027290	0.17024	0.0017900	0.13699	0.0020510	0.17798	0.0017070
420.00	0.22122	0.0027520	0.17274	0.0017380	0.13857	0.0015630	0.18014	0.0016940
425.00	0.22418	0.0026600	0.17497	0.0016370	0.14062	0.0019520	0.18253	0.0014770
430.00	0.22713	0.0026960	0.17755	0.0016680	0.14226	0.0021080	0.18478	0.0014360
435.00	0.23001	0.0027570	0.17979	0.0016980	0.14344	0.0019690	0.18670	0.0013730
440.00	0.23257	0.0028450	0.18193	0.0018590	0.14562	0.0020240	0.18919	0.0014010
445.00	0.23555	0.0027270	0.18396	0.0017530	0.14657	0.0020690	0.19061	0.0014920
450.00	0.23718	0.0028810	0.18581	0.0017260	0.14850	0.0018790	0.19282	0.0014770
455.00	0.24030	0.0029770	0.18791	0.0017800	0.14931	0.0014880	0.19444	0.0014980
460.00	0.24163	0.0028950	0.18928	0.0018610	0.15071	0.0011900	0.19625	0.0015760
465.00	0.24437	0.0029840	0.19127	0.0018920	0.15077	0.0016760	0.19774	0.0017210
470.00	0.24610	0.0030590	0.19255	0.0019390	0.15228	0.0014790	0.19957	0.0017860
475.00	0.24868	0.0029840	0.19441	0.0017960	0.15362	0.0021430	0.20118	0.0018580
480.00	0.25091	0.0031260	0.19597	0.0018220	0.15504	0.0019370	0.20275	0.0018560
485.00	0.25290	0.0031690	0.19735	0.0017930	0.15578	0.0017110	0.20421	0.0019280
490.00	0.25523	0.0031900	0.19903	0.0017840	0.15707	0.0013540	0.20577	0.0019500
495.00	0.25744	0.0032110	0.20061	0.0017950	0.15923	0.0015620	0.20762	0.0019860
500.00	0.25954	0.0031570	0.20195	0.0017780	0.16013	0.0017050	0.20862	0.0019680
505.00	0.26136	0.0031760	0.20315	0.0017520	0.15933	0.0015300	0.20969	0.0017030
510.00	0.26349	0.0032270	0.20483	0.0017490	0.16145	0.0018590	0.21154	0.0017140
515.00	0.26554	0.0032610	0.20675	0.0017300	0.16282	0.0018060	0.21345	0.0016330
520.00	0.26754	0.0034040	0.20833	0.0017390	0.16369	0.0022050	0.21498	0.0016480
525.00	0.27005	0.0033060	0.21005	0.0017760	0.16612	0.0019380	0.21663	0.0017110
530.00	0.27129	0.0033780	0.21134	0.0017700	0.16707	0.0020600	0.21799	0.0018620
535.00	0.27338	0.0032990	0.21304	0.0017940	0.16740	0.0017120	0.21900	0.0016180
540.00	0.27437	0.0033010	0.21404	0.0017650	0.16848	0.0016510	0.22049	0.0017680
545.00	0.27654	0.0034040	0.21551	0.0017660	0.16851	0.0019260	0.22169	0.0021230
550.00	0.27733	0.0033110	0.21671	0.0018340	0.16954	0.0016370	0.22280	0.0020930
555.00	0.27905	0.0032570	0.21846	0.0019450	0.17087	0.0020090	0.22378	0.0020540
560.00	0.28053	0.0034500	0.21995	0.0018650	0.17240	0.0019010	0.22536	0.0023320
565.00	0.28244	0.0033780	0.22117	0.0017950	0.17213	0.0019240	0.22618	0.0017430
570.00	0.28330	0.0032620	0.22249	0.0017940	0.17308	0.0021270	0.22746	0.0017770
575.00	0.28565	0.0032670	0.22394	0.0018590	0.17424	0.0020680	0.22867	0.0021030
580.00	0.28672	0.0035900	0.22489	0.0019230	0.17511	0.0015770	0.22995	0.0022790
585.00	0.28838	0.0035070	0.22635	0.0018750	0.17533	0.0024490	0.23086	0.0020860
590.00	0.28918	0.0036420	0.22728	0.0020180	0.17669	0.0025110	0.23157	0.0020460
595.00	0.29107	0.0036520	0.22889	0.0019440	0.17780	0.0024360	0.23285	0.0020100
600.00	0.29199	0.0036480	0.22982	0.0019850	0.17872	0.0023620	0.23374	0.0020580
605.00	0.29432	0.0036360	0.23097	0.0020810	0.17947	0.0022100	0.23507	0.0022210
610.00	0.29497	0.0036650	0.23203	0.0020410	0.18010	0.0021740	0.23582	0.0021870
615.00	0.29623	0.0038570	0.23334	0.0021450	0.18154	0.0018290	0.23736	0.0020580
620.00	0.29748	0.0038550	0.23440	0.0022150	0.18185	0.0015800	0.23806	0.0019820
625.00	0.29818	0.0039640	0.23539	0.0021660	0.18287	0.0018480	0.23941	0.0023670
630.00	0.29962	0.0038180	0.23633	0.0021490	0.18310	0.0020320	0.24018	0.0023640
635.00	0.30043	0.0039110	0.23727	0.0021990	0.18305	0.0015990	0.24122	0.0020570
640.00	0.30181	0.0037770	0.23827	0.0021950	0.18419	0.0015520	0.24204	0.0019940
645.00	0.30285	0.0039750	0.23915	0.0021930	0.18646	0.0014180	0.24328	0.0024200
650.00	0.30438	0.0039460	0.23998	0.0021420	0.18642	0.0015540	0.24406	0.0024870
655.00	0.30565	0.0041060	0.24122	0.0021940	0.18674	0.0019940	0.24540	0.0021280
660.00	0.30698	0.0039730	0.24183	0.0022690	0.18758	0.0015000	0.24593	0.0021580
665.00	0.30843	0.0038670	0.24281	0.0021650	0.18818	0.0012780	0.24701	0.0024240
670.00	0.30990	0.0039320	0.24369	0.0020840	0.18920	0.0015270	0.24799	0.0024410
675.00	0.31140	0.0040200	0.24457	0.0021240	0.19004	0.0015390	0.24892	0.0024890
680.00	0.31212	0.0040910	0.24528	0.0019890	0.19097	0.0016720	0.25006	0.0024540
685.00	0.31374	0.0041090	0.24608	0.0019690	0.19286	0.0017330	0.25077	0.0021800
690.00	0.31460	0.0042590	0.24713	0.0019780	0.19402	0.0014860	0.25176	0.0021990
695.00	0.31590	0.0044790	0.24804	0.0020830	0.19392	0.0018500	0.25253	0.0020390
700.00	0.31663	0.0041860	0.24882	0.0020290	0.19527	0.0019200	0.25369	0.0019380
705.00	0.31823	0.0042380	0.25003	0.0020200	0.19651	0.0019970	0.25481	0.0018250
710.00	0.31931	0.0041650	0.25095	0.0020950	0.19696	0.0022460	0.25567	0.0018970
715.00	0.32029	0.0042150	0.25149	0.0020930	0.19827	0.0017960	0.25657	0.0018560
720.00	0.32178	0.0042370	0.25301	0.0021290	0.19902	0.0019210	0.25733	0.0017700
725.00	0.32327	0.0042530	0.25355	0.0021440	0.19887	0.0021080	0.25874	0.0017480
730.00	0.32515	0.0041970	0.25506	0.0020430	0.19876	0.0023900	0.25920	0.0016690
735.00	0.32574	0.0042450	0.25581	0.0021890	0.20062	0.0022500	0.26020	0.0019090
740.00	0.32722	0.0042100	0.25682	0.0022980	0.19945	0.0023740	0.26050	0.0018200
745.00	0.32797	0.0042660	0.25769	0.0022220	0.20096	0.0023150	0.26197	0.0020360
750.00	0.32944	0.0044760	0.25899	0.0023830	0.20087	0.0024280	0.26232	0.0020720
755.00	0.32993	0.0044200	0.25924	0.0024430	0.20218	0.0025170	0.26318	0.0022140
760.00	0.33069	0.0044120	0.26017	0.0024190	0.20099	0.0027420	0.26359	0.0022030
765.00	0.33203	0.0044540	0.26062	0.0023710	0.20170	0.0024470	0.26376	0.0022710
770.00	0.33245	0.0044640	0.26110	0.0023800	0.20016	0.0025320	0.26472	0.0023020
775.00	0.33391	0.0044260	0.26171	0.0025550	0.19995	0.0019920	0.26484	0.0021820
780.00	0.33431	0.0044670	0.26185	0.0025220	0.19935	0.0020120	0.26562	0.0021850
785.00	0.33537	0.0046150	0.26204	0.0026800	0.19918	0.0020220	0.26580	0.0020840
790.00	0.33580	0.0046620	0.26169	0.0025490	0.19860	0.0019420	0.26593	0.0021350
795.00	0.33655	0.0046510	0.26168	0.0024100	0.19797	0.0020130	0.26550	0.0024410
800.00	0.33694	0.0046780	0.26102	0.0025330	0.19658	0.0022660	0.26535	0.0024660
805.00	0.33778	0.0048170	0.26058	0.0023460	0.19604	0.0018620	0.26509	0.0027240
810.00	0.33891	0.0047380	0.26005	0.0023250	0.19377	0.0019780	0.26402	0.0027060
815.00	0.33834	0.0046930	0.25919	0.0023500	0.19236	0.0021570	0.26396	0.0024010
820.00	0.33986	0.0047880	0.25901	0.0023060	0.19071	0.0018360	0.26257	0.0022810
825.00	0.33919	0.0048610	0.25784	0.0023240	0.18984	0.0018960	0.26286	0.0025880
830.00	0.34070	0.0048630	0.25738	0.0023510	0.18717	0.0020440	0.26097	0.0026430
835.00	0.34017	0.0049600	0.25650	0.0023320	0.18581	0.0019040	0.26041	0.0024120
840.00	0.34000	0.0050110	0.25534	0.0023600	0.18402	0.0018870	0.25941	0.0024330
845.00	0.34067	0.0051650	0.25438	0.0023340	0.18185	0.0019410	0.25788	0.0025730
850.00	0.33997	0.0045740	0.25369	0.0025640	0.17985	0.0023340	0.25735	0.0025710
855.00	0.33938	0.0044580	0.25181	0.0027070	0.17748	0.0021520	0.25560	0.0024790
860.00	0.33914	0.0043920	0.25078	0.0024230	0.17531	0.0020230	0.25496	0.0027410
865.00	0.33852	0.0045570	0.24911	0.0025100	0.17330	0.0019510	0.25294	0.0027440
870.00	0.33757	0.0043950	0.24762	0.0026670	0.17064	0.0020080	0.25145	0.0025730
875.00	0.33731	0.0037820	0.24611	0.0024960	0.16832	0.0022480	0.25023	0.0019380
880.00	0.33706	0.0040410	0.24430	0.0019720	0.16545	0.0020020	0.24866	0.0020540
885.00	0.33673	0.0038600	0.24311	0.0020570	0.16412	0.0020600	0.24815	0.0021970
890.00	0.33617	0.0035930	0.24150	0.0018830	0.16196	0.0018060	0.24652	0.0022920
895.00	0.33522	0.0038960	0.24089	0.0019680	0.16098	0.0017240	0.24598	0.0018400
900.00	0.33568	0.0034900	0.23925	0.0020020	0.15977	0.0018720	0.24437	0.0018500
905.00	0.33590	0.0036440	0.23827	0.0021680	0.15856	0.0021440	0.24409	0.0021400
910.00	0.33477	0.0039650	0.23806	0.0021700	0.15769	0.0021910	0.24367	0.0021220
915.00	0.33463	0.0036280	0.23723	0.0019500	0.15689	0.0022430	0.24335	0.0025500
920.00	0.33468	0.0037430	0.23667	0.0020070	0.15596	0.0022070	0.24227	0.0025690
925.00	0.33466	0.0035780	0.23589	0.0020590	0.15578	0.0019750	0.24246	0.0017630
930.00	0.33474	0.0034500	0.23644	0.0018590	0.15526	0.0017740	0.24212	0.0016660
935.00	0.33535	0.0034330	0.23644	0.0018750	0.15569	0.0020570	0.24245	0.0021790
940.00	0.33653	0.0034570	0.23713	0.0016960	0.15613	0.0019770	0.24254	0.0023230
945.00	0.33656	0.0035580	0.23767	0.0018660	0.15633	0.0018800	0.24344	0.0020930
950.00	0.33730	0.0036860	0.23848	0.0018360	0.15651	0.0016220	0.24413	0.0018700
955.00	0.33764	0.0039100	0.23941	0.0015630	0.15708	0.0015580	0.24500	0.0021310
960.00	0.33914	0.0033700	0.24041	0.0015210	0.15855	0.0017360	0.24649	0.0017940
965.00	0.34028	0.0035400	0.24161	0.0015250	0.15994	0.0014920	0.24743	0.0019970
970.00	0.34082	0.0034220	0.24331	0.0015040	0.16110	0.0015130	0.24879	0.0019640
975.00	0.34249	0.0034390	0.24566	0.0016490	0.16314	0.0016600	0.25065	0.0020390
980.00	0.34334	0.0037140	0.24741	0.0018150	0.16504	0.0018240	0.25207	0.0022740
985.00	0.34511	0.0034640	0.24987	0.0016850	0.16665	0.0016690	0.25413	0.0019200
990.00	0.34594	0.0038650	0.25185	0.0017400	0.16895	0.0015630	0.25594	0.0018450
995.00	0.34751	0.0034020	0.25401	0.0018590	0.17102	0.0014590	0.25769	0.0025050
1000.0	0.34891	0.0036750	0.25594	0.0017610	0.17263	0.0017030	0.25961	0.0024760
1005.0	0.35069	0.0039340	0.25861	0.0018420	0.17435	0.0016520	0.26193	0.0023280
1010.0	0.35149	0.0036760	0.26117	0.0017480	0.17706	0.0018630	0.26373	0.0026000
1015.0	0.35312	0.0040490	0.26328	0.0018030	0.17875	0.0025170	0.26586	0.0021740
1020.0	0.35478	0.0038830	0.26547	0.0020570	0.18128	0.0020380	0.26790	0.0022620
1025.0	0.35583	0.0039360	0.26787	0.0020340	0.18461	0.0020290	0.27012	0.0027900
1030.0	0.35703	0.0039670	0.27051	0.0019010	0.18746	0.0019820	0.27223	0.0027500
1035.0	0.35809	0.0040440	0.27264	0.0021000	0.18965	0.0020300	0.27420	0.0025130
1040.0	0.35931	0.0040000	0.27429	0.0020800	0.19219	0.0023710	0.27584	0.0025480
1045.0	0.36022	0.0036230	0.27638	0.0019080	0.19422	0.0021140	0.27762	0.0027500
1050.0	0.36166	0.0037110	0.27825	0.0021180	0.19709	0.0021230	0.27932	0.0028290
1055.0	0.36274	0.0038130	0.28024	0.0020550	0.19928	0.0019340	0.28133	0.0023170
1060.0	0.36429	0.0036440	0.28208	0.0022440	0.20228	0.0021730	0.28314	0.0025110
1065.0	0.36475	0.0038450	0.28397	0.0022940	0.20284	0.0021210	0.28497	0.0024620
1070.0	0.36553	0.0038930	0.28535	0.0021810	0.20472	0.0020560	0.28640	0.0026690
1075.0	0.36671	0.0035980	0.28693	0.0022950	0.20778	0.0020040	0.28812	0.0026870
1080.0	0.36741	0.0041210	0.28852	0.0023270	0.20944	0.0023660	0.28914	0.0024270
1085.0	0.36858	0.0040400	0.28987	0.0024190	0.21130	0.0024900	0.29088	0.0025650
1090.0	0.36942	0.0038910	0.29138	0.0023490	0.21299	0.0025440	0.29226	0.0023680
1095.0	0.37014	0.0038390	0.29226	0.0021970	0.21397	0.0026660	0.29312	0.0028420
1100.0	0.37116	0.0039890	0.29419	0.0021570	0.21529	0.0023790	0.29498	0.0026830
1105.0	0.37244	0.0039840	0.29501	0.0022720	0.21702	0.0025390	0.29565	0.0027110
1110.0	0.37300	0.0038530	0.29565	0.0024430	0.21857	0.0024320	0.29692	0.0027070
1115.0	0.37344	0.0036580	0.29741	0.0022410	0.21965	0.0027830	0.29783	0.0022520
1120.0	0.37428	0.0035800	0.29844	0.0024100	0.22141	0.0027380	0.29906	0.0024070
1125.0	0.37565	0.0040610	0.29928	0.0023290	0.22311	0.0021840	0.29988	0.0031800
1130.0	0.37628	0.0040750	0.30042	0.0023340	0.22407	0.0025260	0.30081	0.0031310
1135.0	0.37579	0.0034910	0.30095	0.0024490	0.22397	0.0024790	0.30133	0.0025010
1140.0	0.37698	0.0040030	0.30181	0.0023770	0.22580	0.0026130	0.30250	0.0025670
1145.0	0.37748	0.0040490	0.30292	0.0022380	0.22674	0.0023830	0.30325	0.0029490
1150.0	0.37846	0.0043690	0.30348	0.0019790	0.22819	0.0025170	0.30400	0.0028520
1155.0	0.38002	0.0042170	0.30441	0.0022540	0.22918	0.0025140	0.30475	0.0025200
1160.0	0.38019	0.0038970	0.30488	0.0020920	0.22963	0.0024020	0.30551	0.0022560
1165.0	0.38112	0.0038160	0.30562	0.0021210	0.23046	0.0022900	0.30562	0.0027080
1170.0	0.38116	0.0043320	0.30636	0.0020050	0.23121	0.0028900	0.30675	0.0026180
1175.0	0.38139	0.0040300	0.30753	0.0019900	0.23217	0.0025380	0.30745	0.0025570
1180.0	0.38258	0.0040580	0.30757	0.0022480	0.23295	0.0025020	0.30796	0.0024500
1185.0	0.38287	0.0041090	0.30839	0.0020390	0.23373	0.0026360	0.30859	0.0022640
1190.0	0.38389	0.0040810	0.30890	0.0018540	0.23458	0.0028680	0.30875	0.0025420
1195.0	0.38401	0.0038970	0.30994	0.0018900	0.23527	0.0029310	0.30963	0.0027040
1200.0	0.38439	0.0040000	0.31035	0.0018660	0.23576	0.0026020	0.31020	0.0025160
1205.0	0.38463	0.0042130	0.31122	0.0017330	0.23665	0.0027110	0.31104	0.0026830
1210.0	0.38516	0.0040680	0.31234	0.0019310	0.23736	0.0027990	0.31184	0.0026140
1215.0	0.38563	0.0039610	0.31290	0.0020370	0.23792	0.0029170	0.31206	0.0026470
1220.0	0.38669	0.0042650	0.31356	0.0020380	0.23858	0.0029690	0.31284	0.0030420
1225.0	0.38671	0.0042760	0.31416	0.0020790	0.23938	0.0027480	0.31326	0.0027680
1230.0	0.38715	0.0038470	0.31531	0.0020450	0.23973	0.0030430	0.31382	0.0031680
1235.0	0.38757	0.0040230	0.31577	0.0020220	0.24006	0.0029670	0.31429	0.0025950
1240.0	0.38819	0.0038560	0.31625	0.0021250	0.24056	0.0029640	0.31432	0.0025450
1245.0	0.38846	0.0039120	0.31748	0.0020750	0.24092	0.0033560	0.31519	0.0025810
1250.0	0.38942	0.0040660	0.31755	0.0019710	0.24135	0.0031640	0.31572	0.0030050
1255.0	0.39001	0.0040720	0.31923	0.0019600	0.24167	0.0034550	0.31640	0.0028420
1260.0	0.39014	0.0039890	0.31978	0.0020840	0.24208	0.0033480	0.31714	0.0027760
1265.0	0.39150	0.0043710	0.32028	0.0021590	0.24232	0.0035230	0.31787	0.0027080
1270.0	0.39245	0.0040210	0.32120	0.0022350	0.24279	0.0036100	0.31876	0.0027980
1275.0	0.39293	0.0042060	0.32192	0.0022130	0.24327	0.0030840	0.31920	0.0029190
1280.0	0.39324	0.0039850	0.32216	0.0021140	0.24393	0.0034500	0.31958	0.0030040
1285.0	0.39476	0.0041600	0.32321	0.0022250	0.24481	0.0033170	0.32021	0.0031860
1290.0	0.39549	0.0040710	0.32412	0.0023330	0.24578	0.0034270	0.32109	0.0031590
1295.0	0.39635	0.0040500	0.32462	0.0022990	0.24675	0.0034960	0.32140	0.0027360
1300.0	0.39690	0.0040060	0.32487	0.0021090	0.24767	0.0033800	0.32225	0.0029430
1305.0	0.39823	0.0041000	0.32634	0.0025220	0.24851	0.0039390	0.32277	0.0034660
1310.0	0.39878	0.0044440	0.32687	0.0024560	0.24922	0.0036560	0.32345	0.0033200
1315.0	0.39969	0.0039450	0.32736	0.0023510	0.25026	0.0033530	0.32428	0.0025100
1320.0	0.40038	0.0040660	0.32825	0.0022650	0.25132	0.0029820	0.32493	0.0026470
1325.0	0.40095	0.0038780	0.32907	0.0026100	0.25224	0.0036740	0.32579	0.0032170
1330.0	0.40147	0.0040780	0.32926	0.0026130	0.25295	0.0040050	0.32680	0.0030580
1335.0	0.40203	0.0040960	0.33056	0.0023440	0.25385	0.0030310	0.32720	0.0026360
1340.0	0.40251	0.0043980	0.33128	0.0021460	0.25447	0.0033010	0.32830	0.0028680
1345.0	0.40271	0.0040000	0.33186	0.0022260	0.25453	0.0033260	0.32832	0.0030620
1350.0	0.40321	0.0040750	0.33246	0.0022880	0.25494	0.0035010	0.32915	0.0032980
1355.0	0.40374	0.0041250	0.33200	0.0022980	0.25617	0.0033650	0.33025	0.0032850
1360.0	0.40473	0.0041270	0.33307	0.0020490	0.25713	0.0037660	0.33006	0.0031320
1365.0	0.40631	0.0041610	0.33449	0.0018430	0.25828	0.0036100	0.33087	0.0027920
1370.0	0.40696	0.0040790	0.33481	0.0022500	0.25903	0.0033850	0.33140	0.0029240
1375.0	0.40848	0.0042330	0.33573	0.0019550	0.26058	0.0034280	0.33239	0.0031160
1380.0	0.40893	0.0042990	0.33663	0.0022330	0.26136	0.0032350	0.33354	0.0033620
1385.0	0.40949	0.0045530	0.33845	0.0021740	0.26208	0.0035210	0.33378	0.0030080
1390.0	0.40996	0.0049400	0.33849	0.0020140	0.26231	0.0033920	0.33480	0.0026950
1395.0	0.41085	0.0045860	0.33956	0.0020030	0.26308	0.0037120	0.33586	0.0035500
1400.0	0.41035	0.0042540	0.34020	0.0018530	0.26330	0.0036770	0.33696	0.0034730
1405.0	0.41119	0.0039810	0.34110	0.0017480	0.26374	0.0032610	0.33710	0.0029390
1410.0	0.41175	0.0042410	0.34232	0.0022130	0.26463	0.0033960	0.33805	0.0028490
1415.0	0.41256	0.0044290	0.34213	0.0019340	0.26580	0.0037590	0.33818	0.0033050
1420.0	0.41379	0.0042060	0.34316	0.0017960	0.26696	0.0035100	0.33901	0.0030590
1425.0	0.41432	0.0043470	0.34439	0.0021250	0.26771	0.0037750	0.33983	0.0027820
1430.0	0.41524	0.0044530	0.34552	0.0019900	0.26842	0.0034390	0.34004	0.0030440
1435.0	0.41588	0.0042120	0.34639	0.0020110	0.26899	0.0032770	0.34071	0.0030980
1440.0	0.41638	0.0043460	0.34741	0.0019160	0.26924	0.0040350	0.34089	0.0031300
1445.0	0.41666	0.0041080	0.34795	0.0018900	0.26957	0.0041430	0.34221	0.0031240
1450.0	0.41762	0.0046150	0.34861	0.0021250	0.26949	0.0042580	0.34253	0.0033030
1455.0	0.41864	0.0040980	0.34976	0.0020590	0.26986	0.0039270	0.34310	0.0030280
1460.0	0.41871	0.0043370	0.34967	0.0022950	0.27025	0.0036100	0.34326	0.0030070
1465.0	0.41890	0.0046450	0.34992	0.0019490	0.27094	0.0038580	0.34396	0.0029250
1470.0	0.41958	0.0045550	0.35060	0.0020340	0.27133	0.0033450	0.34480	0.0026160
1475.0	0.42062	0.0046350	0.35080	0.0024420	0.27188	0.0036340	0.34531	0.0027350
1480.0	0.42057	0.0041650	0.35163	0.0022820	0.27240	0.0042770	0.34554	0.0027480
1485.0	0.42151	0.0043490	0.35227	0.0023900	0.27290	0.0038370	0.34622	0.0028870
1490.0	0.42248	0.0046760	0.35311	0.0022580	0.27305	0.0045510	0.34617	0.0030320
1495.0	0.42174	0.0046770	0.35302	0.0023150	0.27330	0.0042260	0.34690	0.0028150
1500.0	0.42257	0.0045040	0.35324	0.0024260	0.27360	0.0042730	0.34666	0.0027880
1505.0	0.42304	0.0042740	0.35380	0.0024940	0.27356	0.0038800	0.34825	0.0029830
1510.0	0.42423	0.0046660	0.35462	0.0024820	0.27359	0.0035530	0.34794	0.0032820
1515.0	0.42393	0.0042490	0.35417	0.0023820	0.27368	0.0037930	0.34791	0.0028200
1520.0	0.42436	0.0041940	0.35458	0.0024510	0.27386	0.0035000	0.34880	0.0025800
1525.0	0.42519	0.0042380	0.35510	0.0023370	0.27388	0.0035280	0.34859	0.0029710
1530.0	0.42504	0.0046370	0.35521	0.0024410	0.27395	0.0036470	0.34903	0.0030480
1535.0	0.42574	0.0046180	0.35589	0.0024480	0.27402	0.0035970	0.34940	0.0028670
1540.0	0.42579	0.0044740	0.35600	0.0023930	0.27405	0.0035810	0.34949	0.0027730
